        t / s      omega / (rad/s)
        0.198              0.15839
        0.528              0.23996
        0.764              0.29766
        0.959              0.35147
        1.128              0.39503
        1.279              0.44133
        1.417              0.47042
        1.546              0.49950
        1.670              0.51502
        1.788              0.55336
        1.899              0.58204
        2.004              0.60813
        2.105              0.63789
        2.202              0.66345
        2.295              0.69222
        2.384              0.71708
        2.471              0.73103
        2.556              0.73876
        2.640              0.76572
        2.720              0.80508
        2.797              0.81354
        2.874              0.82727
        2.948              0.85856
        3.021              0.87957
        3.092              0.88402
        3.162              0.89999
        3.231              0.92438
        3.299              0.93898
        3.366              0.93298
        3.431              0.99632
        3.494              0.99855
        3.558              0.95718
        3.620              1.09055
        3.679              1.05211
        3.739              1.03811
        3.799              1.06781
        3.856              1.11634
        3.913              1.10326
        3.971              1.06252
        4.027              1.18003
        4.081              1.13970
        4.136              1.16938
        4.189              1.20356
        4.241              1.19677
        4.294              1.17145
        4.346              1.24481
        4.397              1.20550
        4.448              1.25001
        4.497              1.37175
        4.545              1.24815
        4.596              1.20186
        4.646              1.28783
        4.695              1.32582
        4.742              1.31170
        4.789              1.34630
        4.836              1.35530
        4.882              1.38482
        4.927              1.38665
        4.973              1.36546
        5.018              1.39354
        5.063              1.42385
        5.107              1.42395
        5.151              1.41091
        5.196              1.42667
        5.239              1.47965
        5.282              1.47285
        5.324              1.47892
        5.367              1.45893
        5.409              1.53125
        5.449              1.58350
        5.491              1.45964
        5.532              1.56801
        5.572              1.60049
        5.612              1.57029
        5.651              1.65273
        5.689              1.60556
        5.729              1.58020
        5.768              1.62369
        5.807              1.60457
        5.845              1.68459
        5.883              1.63064
        5.921              1.64486
        5.960              1.63846
        5.997              1.68798
        6.035              1.68912
        6.071              1.72814
        6.108              1.68857
        6.145              1.71921
        6.181              1.73655
        6.217              1.75195
        6.254              1.70387
        6.290              1.79223
        6.326              1.67798
        6.362              1.81710
        6.397              1.74059
        6.433              1.76996
        6.468              1.78748
        6.503              1.88968
        6.537              1.73814
        6.573              1.79059
        6.608              1.79807
        6.643              1.79581
        6.678              1.79039
        6.713              1.82534
        6.747              1.83724
        6.781              1.88277
        6.814              1.86411
        6.848              1.85794
        6.882              1.81119
        6.917              1.85334
        6.950              1.86544
        6.984              1.87334
        7.017              1.89184
        7.051              1.90031
        7.083              1.92111
        7.116              1.93770
        7.149              1.91859
        7.182              1.88957
        7.215              1.91240
        7.247              1.96565
        7.279              1.94538
        7.312              1.94147
        7.344              1.97678
        7.375              1.99314
        7.407              1.96879
        7.439              1.97107
        7.471              1.99479
        7.502              1.99637
        7.534              1.95604
        7.565              2.06006
        7.596              2.03801
        7.628              1.92949
        7.658              2.17141
        7.688              2.07174
        7.719              2.01993
        7.749              2.05682
        7.779              2.12600
        7.809              2.08211
        7.840              1.98383
        7.871              2.18151
        7.900              2.08785
        7.930              2.12413
        7.959              2.16669
        7.988              2.13888
        8.018              2.07352
        8.048              2.18713
        8.077              2.10175
        8.106              2.16207
        8.134              2.35511
        8.162              2.12787
        8.193              2.03425
        8.223              2.16415
        8.251              2.21192
        8.280              2.17464
        8.309              2.21934
        8.337              2.21911
        8.365              2.25212
        8.393              2.24721
        8.421              2.19462
        8.450              2.23132
        8.478              2.26364
        8.505              2.26511
        8.533              2.21567
        8.562              2.23251
        8.589              2.30415
        8.617              2.28363
        8.644              2.28430
        8.672              2.24480
        8.699              2.33749
        8.726              2.40523
        8.753              2.21239
        8.781              2.36308
        8.807              2.40569
        8.833              2.34622
        8.860              2.45427
        8.886              2.38533
        8.912              2.33558
        8.939              2.39405
        8.965              2.35431
        8.991              2.46535
        9.017              2.37424
        9.044              2.39214
        9.070              2.37316
        9.096              2.43704
        9.122              2.43082
        9.148              2.48200
        9.173              2.42024
        9.199              2.45917
        9.224              2.47691
        9.250              2.49660
        9.275              2.42183
        9.301              2.54390
        9.326              2.37541
        9.352              2.57255
        9.377              2.46014
        9.402              2.49948
        9.427              2.52256
        9.451              2.66632
        9.476              2.44911
        9.501              2.51942
        9.526              2.52783
        9.551              2.52215
        9.576              2.51016
        9.601              2.55258
        9.625              2.56666
        9.649              2.62379
        9.673              2.59646
        9.698              2.58302
        9.722              2.51006
        9.747              2.56164
        9.772              2.57571
        9.796              2.57983
        9.820              2.60044
        9.844              2.60800
        9.868              2.63236
        9.892              2.64934
        9.916              2.62007
        9.940              2.57370
        9.965              2.60076
        9.988              2.66813
       10.012              2.63789
       10.036              2.62587
       10.060              2.67108
       10.083              2.68696
       10.107              2.64957
       10.130              2.64700
       10.154              2.67780
       10.177              2.67097
       10.201              2.61527
       10.225              2.74795
       10.248              2.71694
       10.272              2.56467
       10.295              2.88233
       10.317              2.74483
       10.340              2.67426
       10.364              2.71424
       10.386              2.80399
       10.409              2.73908
       10.432              2.60756
       10.456              2.86224
       10.478              2.73444
       10.501              2.77722
       10.523              2.82912
       10.546              2.78633
       10.568              2.69954
       10.591              2.84307
       10.614              2.72684
       10.636              2.80099
       10.658              3.04698
       10.680              2.75132
       10.703              2.62434
       10.726              2.79091
       10.749              2.84629
       10.771              2.79875
       10.793              2.84668
       10.815              2.84423
       10.837              2.88444
       10.859              2.86681
       10.881              2.80524
       10.903              2.83691
       10.925              2.88643
       10.947              2.87271
       10.969              2.81681
       10.992              2.82772
       11.013              2.91753
       11.035              2.88749
       11.057              2.88220
       11.079              2.83154
       11.101              2.93744
       11.122              3.02483
       11.144              2.76305
       11.166              2.95777
       11.187              3.03418
       11.208              2.93251
       11.228              3.09486
       11.249              2.97880
       11.270              2.91834
       11.292              2.98602
       11.313              2.93278
       11.334              3.06796
       11.355              2.95360
       11.376              2.97134
       11.397              2.94267
       11.418              3.02251
       11.439              3.00962
       11.460              3.06751
       11.481              2.99100
       11.501              3.03213
       11.522              3.05498
       11.543              3.07186
       11.563              2.98276
       11.584              3.12581
       11.605              2.91671
       11.625              3.15468
       11.646              3.01511
       11.667              3.06228
       11.687              3.08620
       11.707              3.25942
       11.727              2.99114
       11.748              3.07577
